Step,Speed (m/s),Acceleration (m/s^2),Fuel HBEFA (mg)
0,0,0,8.372
1,0.026,2.595,8.417
2,0.052,2.597,8.463
3,0.078,2.577,8.507
4,0.103,2.58,8.552
5,0.129,2.594,8.598
6,0.155,2.594,8.644
7,0.181,2.539,8.68
8,0.207,2.59,8.733
9,0.232,2.533,8.766
10,0.258,2.584,8.821
11,0.283,2.557,8.859
12,0.309,2.568,8.907
13,0.334,2.493,8.929
14,0.36,2.563,8.993
15,0.385,2.521,9.023
16,0.409,2.395,9.021
17,0.435,2.597,9.136
18,0.461,2.574,9.172
19,0.484,2.359,9.127
20,0.508,2.379,9.173
21,0.532,2.411,9.225
22,0.558,2.578,9.345
23,0.584,2.599,9.401
24,0.608,2.398,9.342
25,0.631,2.291,9.322
26,0.655,2.429,9.434
27,0.68,2.469,9.497
28,0.703,2.297,9.436
29,0.728,2.513,9.605
30,0.751,2.368,9.555
31,0.774,2.253,9.517
32,0.798,2.37,9.63
33,0.822,2.409,9.695
34,0.845,2.361,9.7
35,0.87,2.452,9.804
36,0.895,2.509,9.889
37,0.918,2.338,9.799
38,0.94,2.145,9.681
39,0.962,2.267,9.811
40,0.984,2.145,9.744
41,1.009,2.522,10.096
42,1.032,2.324,9.967
43,1.058,2.553,10.208
44,1.081,2.316,10.036
45,1.103,2.24,10.001
46,1.125,2.11,9.911
47,1.15,2.586,10.403
48,1.172,2.113,9.98
49,1.196,2.465,10.365
50,1.217,2.085,10.015
51,1.241,2.384,10.356
52,1.265,2.368,10.378
53,1.285,2.057,10.079
54,1.308,2.298,10.372
55,1.331,2.253,10.359
56,1.353,2.196,10.327
57,1.377,2.413,10.612
58,1.399,2.252,10.462
59,1.419,1.954,10.141
60,1.442,2.287,10.569
61,1.466,2.435,10.788
62,1.485,1.923,10.187
63,1.509,2.386,10.798
64,1.528,1.92,10.237
65,1.552,2.405,10.894
66,1.573,2.1,10.529
67,1.596,2.24,10.748
68,1.616,1.997,10.452
69,1.636,2.051,10.552
70,1.656,2.016,10.532
71,1.68,2.381,11.073
72,1.703,2.24,10.911
73,1.725,2.193,10.876
74,1.745,2.084,10.75
75,1.768,2.281,11.072
76,1.79,2.154,10.917
77,1.807,1.733,10.309
78,1.824,1.705,10.286
79,1.841,1.73,10.343
80,1.863,2.208,11.108
81,1.881,1.709,10.354
82,1.904,2.328,11.359
83,1.922,1.818,10.575
84,1.94,1.771,10.52
85,1.96,2.018,10.946
86,1.983,2.275,11.399
87,2.002,1.956,10.899
88,2.022,1.928,10.877
89,2.044,2.297,11.534
90,2.068,2.323,11.617
91,2.092,2.397,11.784
92,2.117,2.543,12.083
93,2.143,2.556,12.154
94,2.166,2.354,11.832
95,2.185,1.84,10.929
96,2.207,2.289,11.782
97,2.224,1.631,10.592
98,2.242,1.822,10.966
99,2.265,2.287,11.87
100,2.286,2.101,11.55
101,2.302,1.587,10.588
102,2.321,1.899,11.211
103,2.342,2.125,11.678
104,2.357,1.464,10.405
105,2.382,2.58,12.639
106,2.403,2.025,11.567
107,2.423,2.049,11.644
108,2.441,1.738,11.037
109,2.465,2.411,12.446
110,2.483,1.805,11.226
111,2.505,2.221,12.118
112,2.519,1.418,10.457
113,2.533,1.387,10.405
114,2.549,1.613,10.898
115,2.571,2.226,12.232
116,2.588,1.689,11.104
117,2.606,1.774,11.306
118,2.631,2.461,12.84
119,2.655,2.481,12.928
120,2.672,1.695,11.211
121,2.698,2.584,13.235
122,2.711,1.322,10.414
123,2.732,2.103,12.207
124,2.746,1.364,10.539
125,2.768,2.207,12.498
126,2.786,1.782,11.541
127,2.806,2.006,12.088
128,2.825,1.893,11.849
129,2.842,1.671,11.345
130,2.858,1.625,11.256
131,2.878,2.033,12.254
132,2.898,1.961,12.107
133,2.916,1.826,11.804
134,2.931,1.481,10.984
135,2.953,2.23,12.845
136,2.974,2.108,12.576
137,2.996,2.147,12.706
138,3.01,1.414,10.892
139,3.035,2.474,13.588
140,3.053,1.875,12.101
141,3.075,2.167,12.877
142,3.089,1.385,10.89
143,3.114,2.507,13.817
144,3.133,1.861,12.169
145,3.146,1.313,10.751
146,3.172,2.595,14.155
147,3.193,2.118,12.928
148,3.213,2.05,12.777
149,3.228,1.416,11.098
150,3.252,2.489,14.021
151,3.27,1.705,11.922
152,3.286,1.608,11.675
153,3.308,2.28,13.549
154,3.333,2.508,14.22
155,3.356,2.282,13.633
156,3.371,1.43,11.268
157,3.389,1.882,12.56
158,3.409,1.913,12.674
159,3.423,1.469,11.429
160,3.442,1.907,12.702
161,3.457,1.43,11.351
162,3.475,1.836,12.541
163,3.496,2.086,13.293
164,3.519,2.268,13.859
165,3.544,2.499,14.583
166,3.565,2.136,13.545
167,3.583,1.821,12.636
168,3.6,1.67,12.206
169,3.617,1.708,12.338
170,3.637,2.004,13.258
171,3.656,1.957,13.142
172,3.682,2.536,14.951
173,3.706,2.385,14.531
174,3.727,2.094,13.664
175,3.75,2.297,14.331
176,3.768,1.843,12.943
177,3.782,1.42,11.631
178,3.798,1.622,12.285
179,3.822,2.385,14.734
180,3.837,1.446,11.767
181,3.862,2.548,15.33
182,3.887,2.432,14.999
183,3.912,2.504,15.278
184,3.925,1.366,11.59
185,3.947,2.195,14.331
186,3.961,1.374,11.65
187,3.983,2.215,14.456
188,3.998,1.447,11.926
189,4.012,1.456,11.973
190,4.026,1.401,11.8
191,4.04,1.36,11.676
192,4.059,1.897,13.505
193,4.072,1.381,11.779
194,4.09,1.736,13.002
195,4.115,2.553,15.827
196,4.131,1.529,12.341
197,4.153,2.199,14.676
198,4.17,1.769,13.216
199,4.196,2.545,15.953
200,4.221,2.512,15.888
201,4.245,2.364,15.41
202,4.268,2.31,15.258
203,4.291,2.313,15.308
204,4.316,2.483,15.961
205,4.341,2.563,16.297
206,4.365,2.382,15.686
207,4.389,2.344,15.589
208,4.41,2.147,14.904
209,4.432,2.155,14.969
210,4.45,1.893,14.031
211,4.467,1.689,13.297
212,4.491,2.388,15.935
213,4.508,1.642,13.168
214,4.525,1.765,13.653
215,4.542,1.653,13.249
216,4.558,1.624,13.161
217,4.582,2.418,16.214
218,4.598,1.618,13.184
219,4.619,2.103,15.069
220,4.645,2.527,16.75
221,4.666,2.099,15.13
222,4.687,2.107,15.193
223,4.711,2.418,16.447
224,4.734,2.335,16.164
225,4.757,2.286,16.011
226,4.78,2.258,15.938
227,4.8,2.007,14.971
228,4.816,1.571,13.25
229,4.833,1.791,14.156
230,4.848,1.497,12.988
231,4.862,1.324,12.305
232,4.884,2.262,16.132
233,4.899,1.487,13
234,4.923,2.373,16.655
235,4.943,2.042,15.331
236,4.966,2.27,16.306
237,4.984,1.754,14.2
238,4.999,1.497,13.148
239,5.021,2.283,16.455
240,5.047,2.561,17.668
241,5.063,1.595,13.633
242,5.076,1.358,12.647
243,5.09,1.372,12.719
244,5.111,2.097,15.822
245,5.128,1.684,14.086
246,5.141,1.343,12.645
247,5.163,2.142,16.099
248,5.183,2.06,15.777
249,5.202,1.835,14.833
250,5.221,1.92,15.227
251,5.235,1.388,12.933
252,5.255,2.04,15.804
253,5.27,1.476,13.354
254,5.293,2.321,17.095
255,5.31,1.642,14.13
256,5.324,1.431,13.211
257,5.341,1.667,14.277
258,5.354,1.353,12.897
259,5.37,1.629,14.147
260,5.395,2.439,17.807
261,5.416,2.158,16.582
262,5.435,1.84,15.175
263,5.457,2.189,16.792
264,5.479,2.229,17.009
265,5.495,1.592,14.127
266,5.514,1.868,15.415
267,5.537,2.34,17.618
268,5.556,1.874,15.5
269,5.578,2.254,17.294
270,5.599,2.066,16.458
271,5.621,2.156,16.91
272,5.644,2.382,18.012
273,5.664,1.988,16.194
274,5.683,1.835,15.498
275,5.705,2.21,17.308
276,5.724,1.903,15.877
277,5.745,2.165,17.16
278,5.762,1.715,15.036
279,5.786,2.335,18.045
280,5.807,2.068,16.796
281,5.825,1.856,15.799
282,5.844,1.874,15.915
283,5.867,2.369,18.363
284,5.89,2.265,17.895
285,5.908,1.739,15.344
286,5.924,1.605,14.704
287,5.947,2.338,18.356
288,5.963,1.644,14.945
289,5.979,1.52,14.348
290,5.999,2.036,16.947
291,6.02,2.088,17.239
292,6.041,2.092,17.291
293,6.061,2.069,17.211
294,6.082,2.082,17.311
295,6.107,2.46,19.268
296,6.125,1.765,15.764
297,6.141,1.643,15.165
298,6.165,2.403,19.089
299,6.18,1.46,14.274
300,6.205,2.5,19.662
301,6.223,1.857,16.377
302,6.247,2.364,19.042
303,6.263,1.608,15.134
304,6.279,1.562,14.916
305,6.301,2.268,18.639
306,6.315,1.393,14.071
307,6.328,1.309,13.645
308,6.346,1.763,16.054
309,6.365,1.957,17.111
310,6.384,1.827,16.447
311,6.401,1.726,15.935
312,6.417,1.595,15.255
313,6.442,2.486,20.06
314,6.464,2.178,18.445
315,6.48,1.676,15.771
316,6.502,2.21,18.688
317,6.518,1.545,15.111
318,6.54,2.262,19.039
319,6.565,2.443,20.07
320,6.59,2.488,20.365
321,6.608,1.841,16.847
322,6.622,1.331,14.058
323,6.638,1.616,15.646
324,6.654,1.644,15.822
325,6.67,1.623,15.728
326,6.686,1.604,15.64
327,6.706,1.961,17.655
328,6.725,1.874,17.2
329,6.75,2.482,20.65
330,6.768,1.803,16.864
331,6.781,1.305,14.074
332,6.805,2.42,20.408
333,6.828,2.317,19.868
334,6.844,1.62,15.93
335,6.869,2.44,20.646
336,6.883,1.419,14.829
337,6.902,1.932,17.795
338,6.928,2.565,21.48
339,6.953,2.508,21.202
340,6.974,2.134,19.074
341,6.999,2.461,21.024
342,7.018,1.96,18.137
343,7.043,2.458,21.093
344,7.061,1.82,17.383
345,7.077,1.623,16.245
346,7.093,1.593,16.094
347,7.117,2.357,20.642
348,7.142,2.498,21.525
349,7.159,1.729,16.985
350,7.184,2.5,21.623
351,7.204,2.001,18.673
352,7.224,2.015,18.791
353,7.238,1.405,15.146
354,7.26,2.168,19.775
355,7.28,1.961,18.556
356,7.3,2.057,19.168
357,7.314,1.324,14.735
358,7.333,1.923,18.406
359,7.351,1.779,17.553
360,7.368,1.786,17.624
361,7.388,1.943,18.613
362,7.405,1.749,17.45
363,7.424,1.915,18.501
364,7.45,2.571,22.601
365,7.473,2.261,20.722
366,7.497,2.402,21.648
367,7.519,2.186,20.339
368,7.538,1.914,18.672
369,7.562,2.412,21.836
370,7.579,1.755,17.731
371,7.605,2.591,23.057
372,7.63,2.426,22.061
373,7.655,2.495,22.549
374,7.674,1.905,18.823
375,7.696,2.199,20.742
376,7.715,1.958,19.228
377,7.737,2.228,20.999
378,7.752,1.42,15.818
379,7.769,1.727,17.82
380,7.785,1.568,16.817
381,7.809,2.413,22.336
382,7.825,1.581,16.954
383,7.841,1.638,17.342
384,7.862,2.127,20.571
385,7.881,1.908,19.17
386,7.899,1.802,18.5
387,7.915,1.614,17.284
388,7.936,2.057,20.237
389,7.956,1.989,19.823
390,7.979,2.352,22.27
391,7.995,1.584,17.191
392,8.019,2.324,22.154
393,8.042,2.393,22.665
394,8.065,2.266,21.856
395,8.079,1.341,15.672
396,8.1,2.13,21.005
397,8.118,1.819,18.938
398,8.134,1.571,17.284
399,8.153,1.95,19.878
400,8.173,1.936,19.817
401,8.191,1.809,18.981
402,8.207,1.674,18.083
403,8.22,1.302,15.562
404,8.241,2.039,20.634
405,8.258,1.764,18.774
406,8.276,1.76,18.774
407,8.295,1.878,19.613
408,8.311,1.569,17.502
409,8.324,1.378,16.2
410,8.339,1.479,16.916
411,8.359,1.989,20.486
412,8.378,1.905,19.928
413,8.404,2.575,24.654
414,8.425,2.125,21.549
415,8.447,2.216,22.225
416,8.462,1.516,17.332
417,8.488,2.518,24.431
418,8.504,1.646,18.301
419,8.518,1.446,16.902
420,8.533,1.479,17.155
421,8.553,1.944,20.487
422,8.567,1.399,16.631
423,8.583,1.625,18.257
424,8.607,2.356,23.524
425,8.629,2.245,22.772
426,8.645,1.609,18.227
427,8.661,1.592,18.131
428,8.675,1.402,16.775
429,8.698,2.328,23.5
430,8.717,1.88,20.294
431,8.734,1.71,19.088
432,8.75,1.622,18.466
433,8.769,1.882,20.39
434,8.792,2.235,23.008
435,8.807,1.544,17.974
436,8.83,2.297,23.53
437,8.852,2.19,22.791
438,8.867,1.507,17.783
439,8.885,1.79,19.896
440,8.899,1.381,16.885
441,8.924,2.557,25.643
442,8.942,1.756,19.729
443,8.964,2.183,22.945
444,8.986,2.277,23.686
445,9.003,1.711,19.485
446,9.023,1.982,21.542
447,9.043,1.994,21.671
448,9.068,2.518,25.659
449,9.083,1.451,17.635
450,9.099,1.62,18.938
451,9.116,1.717,19.69
452,9.133,1.717,19.716
453,9.155,2.164,23.152
454,9.18,2.528,25.978
455,9.194,1.336,16.897
456,9.217,2.334,24.574
457,9.231,1.34,16.967
458,9.246,1.56,18.678
459,9.268,2.142,23.193
460,9.292,2.44,25.535
461,9.31,1.851,21.016
462,9.328,1.712,19.963
463,9.344,1.634,19.387
464,9.364,1.985,22.149
465,9.386,2.225,24.056
466,9.406,2.002,22.353
467,9.428,2.248,24.317
468,9.454,2.556,26.79
469,9.473,1.851,21.279
470,9.493,2.039,22.794
471,9.507,1.396,17.736
472,9.522,1.535,18.852
473,9.538,1.59,19.308
474,9.562,2.405,25.824
475,9.588,2.597,27.407
476,9.603,1.465,18.399
477,9.617,1.418,18.043
478,9.638,2.128,23.758
479,9.662,2.388,25.89
480,9.678,1.534,19.052
481,9.697,1.926,22.24
482,9.716,1.894,22.011
483,9.737,2.12,23.881
484,9.754,1.691,20.431
485,9.773,1.872,21.931
486,9.793,2.027,23.221
487,9.807,1.459,18.617
488,9.824,1.618,19.939
489,9.844,2.079,23.739
490,9.86,1.555,19.469
491,9.875,1.524,19.236
492,9.896,2.049,23.587
493,9.92,2.46,27.019
494,9.944,2.421,26.751
495,9.969,2.45,27.039
496,9.987,1.821,21.857
497,10.011,2.424,26.918
498,10.032,2.055,23.88
499,10.051,1.933,22.898
500,10.067,1.588,20.036
501,10.09,2.309,26.114
502,10.104,1.35,18.083
503,10.119,1.574,19.99
504,10.133,1.313,17.808
505,10.152,1.955,23.248
506,10.167,1.496,19.396
507,10.181,1.437,18.917
508,10.207,2.503,27.992
509,10.22,1.345,18.184
510,10.235,1.51,19.61
511,10.257,2.192,25.452
512,10.282,2.487,28.022
513,10.307,2.546,28.585
514,10.323,1.585,20.368
515,10.349,2.544,28.656
516,10.369,2.044,24.394
517,10.392,2.263,26.329
518,10.406,1.422,19.076
519,10.431,2.508,28.529
520,10.444,1.33,18.327
521,10.467,2.255,26.402
522,10.488,2.153,25.561
523,10.514,2.551,29.086
524,10.537,2.32,27.115
525,10.557,1.963,24.024
526,10.574,1.713,21.854
527,10.589,1.493,19.941
528,10.603,1.412,19.242
529,10.623,2.036,24.781
530,10.642,1.921,23.797
531,10.667,2.441,28.455
532,10.681,1.393,19.176
533,10.704,2.303,27.303
534,10.719,1.522,20.375
535,10.736,1.671,21.733
536,10.76,2.411,28.384
537,10.781,2.154,26.131
538,10.807,2.589,30.087
539,10.826,1.912,24.034
540,10.845,1.824,23.274
541,10.86,1.514,20.499
542,10.884,2.42,28.729
543,10.903,1.896,24.021
544,10.916,1.314,18.767
545,10.935,1.859,23.737
546,10.955,2.063,25.632
547,10.98,2.442,29.139
548,11.005,2.535,30.048
549,11.029,2.36,28.494
550,11.046,1.733,22.772
551,11.063,1.716,22.638
552,11.087,2.374,28.743
553,11.106,1.865,24.082
554,11.127,2.185,27.079
555,11.147,1.914,24.606
556,11.16,1.377,19.649
557,11.176,1.561,21.383
558,11.199,2.275,28.055
559,11.215,1.616,21.945
560,11.232,1.722,22.963
561,11.248,1.592,21.771
562,11.271,2.271,28.171
563,11.291,2.06,26.227
564,11.31,1.919,24.935
565,11.336,2.574,31.159
566,11.355,1.929,25.115
567,11.374,1.821,24.125
568,11.387,1.375,19.928
569,11.405,1.729,23.302
570,11.428,2.334,29.09
571,11.442,1.432,20.535
572,11.462,2.009,26.06
573,11.485,2.235,28.258
574,11.507,2.189,27.869
575,11.523,1.629,22.53
576,11.548,2.486,30.803
577,11.571,2.296,29.025
578,11.585,1.412,20.536
579,11.6,1.475,21.168
580,11.618,1.841,24.726
581,11.636,1.807,24.431
582,11.658,2.213,28.399
583,11.678,1.979,26.168
584,11.701,2.246,28.804
585,11.724,2.35,29.869
586,11.746,2.172,28.172
587,11.763,1.702,23.614
588,11.786,2.359,30.086
589,11.803,1.636,23.032
590,11.817,1.41,20.831
591,11.833,1.653,23.241
592,11.857,2.314,29.796
593,11.882,2.57,32.38
594,11.906,2.416,30.906
595,11.93,2.398,30.781
596,11.95,1.958,26.452
597,11.971,2.113,28.039
598,11.984,1.333,20.29
599,11.998,1.381,20.79
600,12.02,2.14,28.395
601,12.035,1.515,22.176
602,12.054,1.9,26.06
603,12.08,2.593,33.065
604,12.098,1.845,25.587
605,12.119,2.045,27.635
606,12.135,1.621,23.395
607,12.154,1.955,26.794
608,12.168,1.379,20.992
609,12.192,2.386,31.231
610,12.218,2.593,33.392
611,12.241,2.337,30.839
612,12.26,1.89,26.327
613,12.283,2.277,30.318
614,12.298,1.505,22.461
615,12.322,2.424,31.903
616,12.344,2.175,29.4
617,12.359,1.532,22.821
618,12.376,1.67,24.267
619,12.399,2.279,30.582
620,12.418,1.916,26.871
621,12.437,1.932,27.073
622,12.451,1.413,21.731
623,12.472,2.021,28.059
624,12.492,2.07,28.607
625,12.512,1.983,27.74
626,12.531,1.874,26.644
627,12.554,2.322,31.355
628,12.575,2.046,28.518
629,12.59,1.567,23.531
630,12.61,1.944,27.515
631,12.631,2.138,29.59
632,12.65,1.941,27.56
633,12.667,1.646,24.482
634,12.689,2.164,29.979
635,12.707,1.844,26.638
636,12.731,2.409,32.664
637,12.748,1.689,25.062
638,12.765,1.724,25.467
639,12.79,2.444,33.163
640,12.806,1.592,24.131
641,12.829,2.323,31.965
642,12.85,2.151,30.164
643,12.867,1.666,25.016
644,12.893,2.593,34.991
645,12.909,1.61,24.485
646,12.935,2.556,34.696
647,12.949,1.46,22.929
648,12.964,1.457,22.914
649,12.982,1.837,27.05
650,12.998,1.562,24.097
651,13.012,1.463,23.058
652,13.032,1.922,28.057
653,13.053,2.13,30.348
654,13.07,1.703,25.75
655,13.096,2.58,35.336
656,13.115,1.973,28.765
657,13.137,2.166,30.913
658,13.162,2.534,34.988
659,13.182,1.947,28.602
660,13.207,2.5,34.729
661,13.232,2.462,34.36
662,13.255,2.367,33.375
663,13.276,2.087,30.324
664,13.29,1.382,22.561
665,13.304,1.404,22.826
666,13.317,1.307,21.768
667,13.338,2.05,30.039
668,13.352,1.403,22.879
669,13.367,1.516,24.164
670,13.387,2.035,29.964
671,13.41,2.27,32.634
672,13.433,2.277,32.764
673,13.45,1.765,27.068
674,13.468,1.766,27.117
675,13.486,1.795,27.464
676,13.508,2.238,32.484
677,13.533,2.494,35.417
678,13.558,2.477,35.279
679,13.577,1.915,28.985
680,13.596,1.929,29.179
681,13.619,2.229,32.614
682,13.632,1.383,23.063
683,13.649,1.633,25.914
684,13.667,1.839,28.289
685,13.691,2.407,34.798
686,13.716,2.511,36.045
687,13.738,2.169,32.191
688,13.752,1.386,23.263
689,13.769,1.71,26.993
690,13.789,2.033,30.739
691,13.809,1.992,30.296
692,13.825,1.571,25.492
693,13.851,2.598,37.363
694,13.864,1.352,23.033
695,13.889,2.414,35.332
696,13.909,2.05,31.163
697,13.928,1.935,29.877
698,13.945,1.631,26.374
699,13.961,1.648,26.607
700,13.98,1.922,29.816
701,14.004,2.343,34.766
702,14.03,2.583,37.623
703,14.045,1.577,25.911
704,14.068,2.235,33.641
705,14.093,2.513,36.958
706,14.118,2.471,36.526
707,14.132,1.456,24.63
708,14.155,2.244,33.933
709,14.172,1.757,28.243
710,14.189,1.674,27.294
711,14.215,2.553,37.716
712,14.235,2.087,32.259
713,14.251,1.531,25.703
714,14.265,1.456,24.827
715,14.285,1.985,31.142
716,14.308,2.31,35.061
717,14.328,1.981,31.175
718,14.351,2.329,35.374
719,14.366,1.467,25.11
720,14.382,1.578,26.462
721,14.399,1.73,28.311
722,14.425,2.589,38.655
723,14.443,1.8,29.235
724,14.466,2.282,35.068
725,14.488,2.262,34.882
726,14.511,2.238,34.639
727,14.53,1.886,30.429
728,14.543,1.332,23.759
729,14.562,1.86,30.167
730,14.575,1.311,23.541
731,14.589,1.443,25.169
732,14.605,1.56,26.614
733,14.622,1.756,29.025
734,14.641,1.835,30.021
735,14.666,2.56,38.905
736,14.686,1.949,31.494
737,14.702,1.606,27.331
738,14.722,2.046,32.744
739,14.745,2.274,35.595
740,14.758,1.339,24.143
741,14.774,1.558,26.858
742,14.792,1.811,29.999
743,14.817,2.45,37.911
744,14.832,1.509,26.345
745,14.848,1.61,27.627
746,14.865,1.742,29.288
747,14.891,2.583,39.743
748,14.908,1.681,28.6
749,14.922,1.444,25.691
750,14.939,1.645,28.204
751,14.963,2.445,38.199
752,14.986,2.323,36.735
753,15.005,1.822,30.533
754,15.028,2.362,37.322
755,15.051,2.254,36.016
756,15.067,1.601,27.872
757,15.08,1.334,24.551
758,15.099,1.849,31.036
759,15.117,1.799,30.451
760,15.14,2.314,36.967
761,15.16,2.062,33.838
762,15.184,2.33,37.275
763,15.197,1.37,25.177
764,15.218,2.052,33.833
765,15.232,1.374,25.27
766,15.249,1.788,30.551
767,15.269,1.937,32.478
768,15.283,1.422,25.968
769,15.306,2.344,37.727
770,15.32,1.342,24.996
771,15.344,2.378,38.246
772,15.366,2.225,36.345
773,15.379,1.335,24.994
774,15.402,2.278,37.101
775,15.426,2.438,39.218
776,15.44,1.348,25.252
777,15.463,2.317,37.744
778,15.481,1.761,30.629
779,15.502,2.147,35.649
780,15.527,2.512,40.416
781,15.546,1.838,31.738
782,15.563,1.743,30.546
783,15.578,1.502,27.454
784,15.595,1.693,29.96
785,15.614,1.858,32.138
786,15.632,1.816,31.627
787,15.654,2.272,37.596
788,15.679,2.459,40.098
789,15.698,1.894,32.767
790,15.716,1.803,31.612
791,15.737,2.071,35.149
792,15.753,1.672,29.968
793,15.777,2.384,39.343
794,15.797,1.991,34.237
795,15.821,2.412,39.822
796,15.839,1.785,31.599
797,15.862,2.274,38.098
798,15.879,1.713,30.733
799,15.901,2.188,37.046
800,15.92,1.932,33.701
801,15.942,2.203,37.342
802,15.965,2.304,38.725
803,15.991,2.596,42.665
804,16.005,1.366,26.342
805,16.021,1.572,29.101
806,16.045,2.48,41.258
807,16.064,1.804,32.273
808,16.085,2.134,36.727
809,16.108,2.271,38.609
810,16.123,1.52,28.587
811,16.141,1.834,32.823
812,16.165,2.425,40.821
813,16.189,2.403,40.577
814,16.204,1.505,28.513
815,16.227,2.272,38.904
816,16.243,1.592,29.748
817,16.259,1.637,30.395
818,16.283,2.4,40.762
819,16.3,1.666,30.859
820,16.318,1.781,32.445
821,16.343,2.513,42.446
822,16.365,2.206,38.324
823,16.383,1.783,32.596
824,16.4,1.671,31.097
825,16.419,1.984,35.405
826,16.442,2.288,39.608
827,16.457,1.464,28.374
828,16.475,1.826,33.355
829,16.498,2.259,39.347
830,16.519,2.15,37.889
831,16.537,1.806,33.2
832,16.563,2.556,43.578
833,16.58,1.672,31.441
834,16.595,1.58,30.195
835,16.619,2.401,41.587
836,16.636,1.698,31.906
837,16.658,2.142,38.085
838,16.682,2.451,42.437
839,16.708,2.567,44.107
840,16.725,1.722,32.397
841,16.748,2.24,39.656
842,16.766,1.866,34.486
843,16.781,1.434,28.478
844,16.794,1.332,27.088
845,16.819,2.493,43.359
846,16.843,2.379,41.813
847,16.865,2.212,39.532
848,16.884,1.951,35.915
849,16.903,1.878,34.926
850,16.918,1.452,28.956
851,16.934,1.672,32.082
852,16.949,1.473,29.31
853,16.966,1.725,32.892
854,16.987,2.11,38.369
855,17.012,2.433,42.986
856,17.037,2.508,44.108
857,17.058,2.144,39.007
858,17.082,2.331,41.707
859,17.1,1.856,35.006
860,17.114,1.397,28.503
861,17.133,1.881,35.419
862,17.158,2.462,43.758
863,17.181,2.299,41.488
864,17.203,2.192,40.01
865,17.221,1.803,34.477
866,17.247,2.599,45.952
867,17.262,1.567,31.175
868,17.288,2.545,45.277
869,17.301,1.315,27.616
